# log(k/ h Mpc^-1)  log(P(k)/ h^-3 Mpc^3) - normalised version of EAGLE P(k) made by CMB 07/01/2019 using Leiden initial cond web page
  1.0000000E-06   5.505970    
  1.0232935E-06   5.629153    
  1.0471285E-06   5.755237    
  1.0715198E-06   5.883997    
  1.0964781E-06   6.015657    
  1.1220189E-06   6.150271    
  1.1481535E-06   6.287889    
  1.1748980E-06   6.428566    
  1.2022642E-06   6.572412    
  1.2302692E-06   6.719602    
  1.2589252E-06   6.869959    
  1.2882499E-06   7.023659    
  1.3182564E-06   7.180820    
  1.3489632E-06   7.341474    
  1.3803839E-06   7.505747    
  1.4125378E-06   7.673839    
  1.4454392E-06   7.845583    
  1.4791086E-06   8.021110    
  1.5135606E-06   8.200590    
  1.5488168E-06   8.384060    
  1.5848925E-06   8.571661    
  1.6218103E-06   8.763433    
  1.6595861E-06   8.959523    
  1.6982438E-06   9.160172    
  1.7377999E-06   9.365140    
  1.7782794E-06   9.574663    
  1.8197018E-06   9.788874    
  1.8620871E-06   10.00791    
  1.9054617E-06   10.23206    
  1.9498443E-06   10.46101    
  1.9952631E-06   10.69505    
  2.0417376E-06   10.93437    
  2.0892969E-06   11.17902    
  2.1379617E-06   11.42916    
  2.1877624E-06   11.68486    
  2.2387208E-06   11.94659    
  2.2908685E-06   12.21386    
  2.3442283E-06   12.48716    
  2.3988337E-06   12.76656    
  2.4547082E-06   13.05223    
  2.5118870E-06   13.34424    
  2.5703948E-06   13.64283    
  2.6302685E-06   13.94836    
  2.6915338E-06   14.26050    
  2.7542292E-06   14.57955    
  2.8183817E-06   14.90578    
  2.8840318E-06   15.23926    
  2.9512078E-06   15.58026    
  3.0199519E-06   15.92883    
  3.0902938E-06   16.28564    
  3.1622776E-06   16.65000    
  3.2359383E-06   17.02250    
  3.3113110E-06   17.40340    
  3.3884432E-06   17.79276    
  3.4673683E-06   18.19089    
  3.5481355E-06   18.59832    
  3.6307802E-06   19.01447    
  3.7153538E-06   19.43988    
  3.8018934E-06   19.87486    
  3.8904527E-06   20.31952    
  3.9810707E-06   20.77419    
  4.0738041E-06   21.23896    
  4.1686926E-06   21.71420    
  4.2657962E-06   22.20054    
  4.3651571E-06   22.69730    
  4.4668368E-06   23.20510    
  4.5708803E-06   23.72434    
  4.6773521E-06   24.25512    
  4.7862991E-06   24.79785    
  4.8977890E-06   25.35325    
  5.0118701E-06   25.92056    
  5.1286142E-06   26.50047    
  5.2480723E-06   27.09345    
  5.3703184E-06   27.69960    
  5.4954057E-06   28.31940    
  5.6234135E-06   28.95305    
  5.7544025E-06   29.60081    
  5.8884361E-06   30.26382    
  6.0255989E-06   30.94090    
  6.1659493E-06   31.63323    
  6.3095763E-06   32.34102    
  6.4565415E-06   33.06469    
  6.6069369E-06   33.80443    
  6.7608285E-06   34.56084    
  6.9183120E-06   35.33406    
  7.0794563E-06   36.12549    
  7.2443618E-06   36.93379    
  7.4131003E-06   37.76022    
  7.5857779E-06   38.60502    
  7.7624691E-06   39.46885    
  7.9432839E-06   40.35187    
  8.1283024E-06   41.25478    
  8.3176392E-06   42.17776    
  8.5113770E-06   43.12257    
  8.7096369E-06   44.08734    
  8.9125051E-06   45.07384    
  9.1201091E-06   46.08226    
  9.3325389E-06   47.11340    
  9.5499263E-06   48.16745    
  9.7723669E-06   49.24524    
  9.9999997E-06   50.34699    
  1.0232935E-05   51.47338    
  1.0471285E-05   52.62643    
  1.0715198E-05   53.80382    
  1.0964781E-05   55.00773    
  1.1220190E-05   56.23840    
  1.1481535E-05   57.49679    
  1.1748980E-05   58.78328    
  1.2022642E-05   60.09861    
  1.2302692E-05   61.44453    
  1.2589251E-05   62.81803    
  1.2882500E-05   64.22485    
  1.3182564E-05   65.66209    
  1.3489633E-05   67.13113    
  1.3803839E-05   68.63325    
  1.4125379E-05   70.16875    
  1.4454393E-05   71.73885    
  1.4791087E-05   73.34384    
  1.5135606E-05   74.98499    
  1.5488169E-05   76.66260    
  1.5848926E-05   78.37990    
  1.6218102E-05   80.13346    
  1.6595861E-05   81.92653    
  1.6982438E-05   83.75945    
  1.7377999E-05   85.63364    
  1.7782793E-05   87.54950    
  1.8197019E-05   89.50821    
  1.8620871E-05   91.51105    
  1.9054616E-05   93.55860    
  1.9498444E-05   95.65207    
  1.9952631E-05   97.79420    
  2.0417378E-05   99.98026    
  2.0892969E-05   102.2193    
  2.1379617E-05   104.5066    
  2.1877624E-05   106.8449    
  2.2387207E-05   109.2357    
  2.2908684E-05   111.6796    
  2.3442282E-05   114.1785    
  2.3988336E-05   116.7330    
  2.4547082E-05   119.3450    
  2.5118870E-05   122.0151    
  2.5703948E-05   124.7453    
  2.6302685E-05   127.5362    
  2.6915337E-05   130.3899    
  2.7542290E-05   133.3103    
  2.8183817E-05   136.2932    
  2.8840317E-05   139.3425    
  2.9512077E-05   142.4604    
  3.0199519E-05   145.6476    
  3.0902938E-05   148.9066    
  3.1622778E-05   152.2384    
  3.2359381E-05   155.6444    
  3.3113112E-05   159.1271    
  3.3884433E-05   162.6872    
  3.4673682E-05   166.3275    
  3.5481353E-05   170.0487    
  3.6307800E-05   173.8537    
  3.7153539E-05   177.7433    
  3.8018934E-05   181.7204    
  3.8904527E-05   185.7905    
  3.9810708E-05   189.9477    
  4.0738039E-05   194.1974    
  4.1686926E-05   198.5427    
  4.2657965E-05   202.9847    
  4.3651569E-05   207.5267    
  4.4668370E-05   212.1700    
  4.5708803E-05   216.9176    
  4.6773523E-05   221.7706    
  4.7862992E-05   226.7329    
  4.8977887E-05   231.8055    
  5.0118702E-05   236.9924    
  5.1286144E-05   242.2946    
  5.2480722E-05   247.7162    
  5.3703181E-05   253.2582    
  5.4954060E-05   258.9251    
  5.6234134E-05   264.7180    
  5.7544024E-05   270.6410    
  5.8884361E-05   276.6969    
  6.0255989E-05   282.8873    
  6.1659492E-05   289.2172    
  6.3095766E-05   295.6897    
  6.4565415E-05   302.3054    
  6.6069369E-05   309.0695    
  6.7608285E-05   315.9845    
  6.9183123E-05   323.0561    
  7.0794566E-05   330.2833    
  7.2443618E-05   337.6734    
  7.4131007E-05   345.2284    
  7.5857781E-05   352.9529    
  7.7624689E-05   360.8505    
  7.9432844E-05   368.9245    
  8.1283026E-05   377.1787    
  8.3176390E-05   385.6189    
  8.5113767E-05   394.2458    
  8.7096370E-05   403.0688    
  8.9125053E-05   412.0861    
  9.1201095E-05   421.3064    
  9.3325383E-05   430.7317    
  9.5499265E-05   440.3693    
  9.7723670E-05   450.2220    
  9.9999997E-05   460.2957    
  1.0232929E-04   470.5934    
  1.0471285E-04   481.1237    
  1.0715192E-04   491.8766    
  1.0964781E-04   502.8600    
  1.1220184E-04   514.1157    
  1.1481535E-04   525.6083    
  1.1748974E-04   537.3707    
  1.2022642E-04   549.3929    
  1.2302685E-04   561.6605    
  1.2589252E-04   574.2323    
  1.2882492E-04   587.0817    
  1.3182564E-04   600.1974    
  1.3489633E-04   613.5837    
  1.3803846E-04   627.3384    
  1.4125378E-04   641.3648    
  1.4454400E-04   655.6790    
  1.4791086E-04   670.3375    
  1.5135614E-04   685.3088    
  1.5488168E-04   700.6052    
  1.5848933E-04   716.3044    
  1.6218102E-04   732.3071    
  1.6595870E-04   748.6344    
  1.6982437E-04   765.3964    
  1.7378009E-04   782.4855    
  1.7782794E-04   799.9896    
  1.8197008E-04   817.8332    
  1.8620871E-04   836.1280    
  1.9054605E-04   854.7663    
  1.9498444E-04   873.8643    
  1.9952621E-04   893.3732    
  2.0417376E-04   913.3328    
  2.0892957E-04   933.7188    
  2.1379617E-04   954.5818    
  2.1877611E-04   975.8724    
  2.2387206E-04   997.6982    
  2.2908671E-04   1019.882    
  2.3442283E-04   1042.661    
  2.3988336E-04   1065.952    
  2.4547096E-04   1089.761    
  2.5118870E-04   1114.029    
  2.5703962E-04   1138.856    
  2.6302686E-04   1164.259    
  2.6915353E-04   1190.229    
  2.7542291E-04   1216.765    
  2.8183832E-04   1243.881    
  2.8840319E-04   1271.610    
  2.9512093E-04   1299.912    
  3.0199520E-04   1328.843    
  3.0902954E-04   1358.463    
  3.1622776E-04   1388.759    
  3.2359365E-04   1419.665    
  3.3113110E-04   1451.282    
  3.3884414E-04   1483.512    
  3.4673681E-04   1516.578    
  3.5481335E-04   1550.273    
  3.6307800E-04   1584.726    
  3.7153516E-04   1619.948    
  3.8018933E-04   1655.946    
  3.8904508E-04   1692.740    
  3.9810708E-04   1730.295    
  4.0738017E-04   1768.737    
  4.1686927E-04   1807.958    
  4.2657965E-04   1848.050    
  4.3651593E-04   1889.059    
  4.4668370E-04   1930.952    
  4.5708829E-04   1973.724    
  4.6773523E-04   2017.464    
  4.7863016E-04   2062.133    
  4.8977887E-04   2107.734    
  5.0118729E-04   2154.383    
  5.1286141E-04   2201.998    
  5.2480749E-04   2250.666    
  5.3703180E-04   2300.313    
  5.4954091E-04   2351.115    
  5.6234130E-04   2402.967    
  5.7543995E-04   2455.985    
  5.8884366E-04   2510.123    
  6.0255954E-04   2565.375    
  6.1659497E-04   2621.783    
  6.3095725E-04   2679.520    
  6.4565416E-04   2738.357    
  6.6069333E-04   2798.532    
  6.7608285E-04   2859.916    
  6.9183082E-04   2922.611    
  7.0794561E-04   2986.684    
  7.2443578E-04   3052.068    
  7.4131007E-04   3118.828    
  7.5857778E-04   3186.980    
  7.7624730E-04   3256.563    
  7.9432840E-04   3327.636    
  8.1283069E-04   3400.170    
  8.3176390E-04   3474.224    
  8.5113815E-04   3549.856    
  8.7096373E-04   3626.960    
  8.9125102E-04   3705.652    
  9.1201090E-04   3786.073    
  9.3325437E-04   3868.082    
  9.5499260E-04   3951.754    
  9.7723724E-04   4037.094    
  1.0000000E-03   4124.210    
  1.0232930E-03   4213.090    
  1.0471285E-03   4303.918    
  1.0715192E-03   4396.309    
  1.0964781E-03   4490.771    
  1.1220183E-03   4586.931    
  1.1481534E-03   4685.202    
  1.1748974E-03   4785.199    
  1.2022642E-03   4887.551    
  1.2302685E-03   4991.500    
  1.2589252E-03   5097.453    
  1.2882493E-03   5205.711    
  1.3182564E-03   5316.135    
  1.3489632E-03   5428.374    
  1.3803846E-03   5543.101    
  1.4125379E-03   5660.017    
  1.4454401E-03   5778.973    
  1.4791087E-03   5900.021    
  1.5135615E-03   6023.744    
  1.5488168E-03   6149.515    
  1.5848933E-03   6277.587    
  1.6218103E-03   6408.165    
  1.6595870E-03   6541.028    
  1.6982438E-03   6676.404    
  1.7378009E-03   6814.042    
  1.7782794E-03   6954.496    
  1.8197008E-03   7097.439    
  1.8620871E-03   7242.359    
  1.9054606E-03   7389.961    
  1.9498444E-03   7540.390    
  1.9952620E-03   7693.551    
  2.0417378E-03   7849.013    
  2.0892958E-03   8007.722    
  2.1379618E-03   8168.196    
  2.1877612E-03   8331.881    
  2.2387207E-03   8498.030    
  2.2908670E-03   8666.987    
  2.3442281E-03   8838.572    
  2.3988336E-03   9012.400    
  2.4547095E-03   9189.517    
  2.5118869E-03   9369.743    
  2.5703963E-03   9552.051    
  2.6302685E-03   9737.057    
  2.6915353E-03   9925.553    
  2.7542291E-03   10116.09    
  2.8183833E-03   10309.76    
  2.8840317E-03   10506.23    
  2.9512094E-03   10704.73    
  3.0199517E-03   10906.79    
  3.0902955E-03   11111.10    
  3.1622776E-03   11318.24    
  3.2359364E-03   11527.65    
  3.3113111E-03   11740.86    
  3.3884414E-03   11955.94    
  3.4673682E-03   12173.43    
  3.5481334E-03   12393.50    
  3.6307801E-03   12616.53    
  3.7153517E-03   12841.75    
  3.8018932E-03   13069.14    
  3.8904506E-03   13299.37    
  3.9810711E-03   13532.04    
  4.0738019E-03   13766.77    
  4.1686925E-03   14004.00    
  4.2657964E-03   14242.84    
  4.3651592E-03   14484.24    
  4.4668368E-03   14727.18    
  4.5708828E-03   14972.37    
  4.6773520E-03   15219.76    
  4.7863019E-03   15468.30    
  4.8977886E-03   15718.67    
  5.0118729E-03   15971.09    
  5.1286141E-03   16223.80    
  5.2480749E-03   16478.80    
  5.3703184E-03   16735.12    
  5.4954090E-03   16991.70    
  5.6234132E-03   17249.71    
  5.7543991E-03   17508.66    
  5.8884365E-03   17768.01    
  6.0255956E-03   18027.65    
  6.1659496E-03   18288.04    
  6.3095726E-03   18548.46    
  6.4565414E-03   18808.58    
  6.6069337E-03   19068.21    
  6.7608287E-03   19327.88    
  6.9183083E-03   19586.97    
  7.0794565E-03   19844.96    
  7.2443578E-03   20102.13    
  7.4131005E-03   20357.67    
  7.5857779E-03   20611.83    
  7.7624731E-03   20864.29    
  7.9432838E-03   21114.88    
  8.1283068E-03   21363.07    
  8.3176391E-03   21608.35    
  8.5113822E-03   21850.76    
  8.7096374E-03   22089.74    
  8.9125102E-03   22325.84    
  9.1201095E-03   22558.11    
  9.3325432E-03   22785.98    
  9.5499260E-03   23009.48    
  9.7723724E-03   23228.32    
  9.9999998E-03   23442.23    
  1.0232930E-02   23650.53    
  1.0471285E-02   23852.72    
  1.0715192E-02   24048.17    
  1.0964781E-02   24237.90    
  1.1220183E-02   24419.63    
  1.1481535E-02   24595.07    
  1.1748977E-02   24761.72    
  1.2022645E-02   24921.36    
  1.2302688E-02   25070.60    
  1.2589254E-02   25211.91    
  1.2882496E-02   25343.86    
  1.3182567E-02   25465.13    
  1.3489629E-02   25576.31    
  1.3803842E-02   25676.44    
  1.4125375E-02   25765.71    
  1.4454396E-02   25843.56    
  1.4791083E-02   25908.55    
  1.5135610E-02   25961.26    
  1.5488168E-02   26001.41    
  1.5848933E-02   26027.48    
  1.6218102E-02   26040.47    
  1.6595870E-02   26039.10    
  1.6982438E-02   26023.18    
  1.7378008E-02   25992.87    
  1.7782794E-02   25946.86    
  1.8197007E-02   25885.47    
  1.8620871E-02   25808.60    
  1.9054607E-02   25716.01    
  1.9498445E-02   25606.71    
  1.9952621E-02   25482.11    
  2.0417377E-02   25340.08    
  2.0892965E-02   25182.24    
  2.1379624E-02   25007.97    
  2.1877619E-02   24817.20    
  2.2387212E-02   24610.33    
  2.2908676E-02   24386.87    
  2.3442289E-02   24148.62    
  2.3988329E-02   23894.04    
  2.4547089E-02   23624.44    
  2.5118863E-02   23340.49    
  2.5703955E-02   23041.43    
  2.6302677E-02   22729.28    
  2.6915345E-02   22404.75    
  2.7542291E-02   22067.54    
  2.8183833E-02   21719.78    
  2.8840318E-02   21361.76    
  2.9512094E-02   20994.25    
  3.0199518E-02   20618.45    
  3.0902956E-02   20236.17    
  3.1622775E-02   19848.50    
  3.2359365E-02   19456.57    
  3.3113111E-02   19061.77    
  3.3884414E-02   18665.25    
  3.4673683E-02   18268.40    
  3.5481334E-02   17872.44    
  3.6307801E-02   17478.76    
  3.7153527E-02   17087.38    
  3.8018942E-02   16701.07    
  3.8904518E-02   16320.90    
  3.9810721E-02   15947.94    
  4.0738028E-02   15584.27    
  4.1686937E-02   15232.48    
  4.2657953E-02   14893.36    
  4.3651581E-02   14567.25    
  4.4668358E-02   14255.88    
  4.5708816E-02   13958.03    
  4.6773508E-02   13674.96    
  4.7863003E-02   13406.38    
  4.8977889E-02   13150.96    
  5.0118729E-02   12908.76    
  5.1286142E-02   12678.81    
  5.2480750E-02   12459.05    
  5.3703181E-02   12248.99    
  5.4954089E-02   12047.46    
  5.6234132E-02   11854.32    
  5.7543993E-02   11670.19    
  5.8884364E-02   11494.31    
  6.0255956E-02   11323.90    
  6.1659496E-02   11153.50    
  6.3095726E-02   10978.75    
  6.4565413E-02   10796.44    
  6.6069350E-02   10604.43    
  6.7608304E-02   10401.64    
  6.9183104E-02   10187.86    
  7.0794582E-02   9960.408    
  7.2443597E-02   9719.057    
  7.4131027E-02   9462.111    
  7.5857759E-02   9190.334    
  7.7624708E-02   8904.954    
  7.9432823E-02   8608.050    
  8.1283048E-02   8301.742    
  8.3176367E-02   7988.917    
  8.5113794E-02   7673.068    
  8.7096371E-02   7358.195    
  8.9125104E-02   7047.854    
  9.1201089E-02   6746.036    
  9.3325436E-02   6456.628    
  9.5499262E-02   6182.998    
  9.7723722E-02   5928.729    
  0.1000000       5695.937    
  0.1023293       5486.882    
  0.1047128       5301.239    
  0.1071519       5138.563    
  0.1096478       4997.098    
  0.1122018       4874.171    
  0.1148153       4765.520    
  0.1174897       4667.349    
  0.1202264       4575.021    
  0.1230269       4482.705    
  0.1258925       4384.572    
  0.1288249       4275.966    
  0.1318256       4152.640    
  0.1348962       4013.029    
  0.1380384       3858.248    
  0.1412537       3691.706    
  0.1445439       3517.881    
  0.1479108       3342.352    
  0.1513561       3170.394    
  0.1548816       3006.798    
  0.1584893       2856.558    
  0.1621810       2723.931    
  0.1659587       2610.833    
  0.1698243       2517.585    
  0.1737800       2440.519    
  0.1778279       2375.135    
  0.1819700       2315.354    
  0.1862087       2255.834    
  0.1905460       2191.554    
  0.1949844       2119.031    
  0.1995262       2036.312    
  0.2041737       1944.367    
  0.2089296       1846.784    
  0.2137962       1749.150    
  0.2187761       1656.068    
  0.2238721       1572.502    
  0.2290867       1500.805    
  0.2344228       1441.127    
  0.2398832       1391.430    
  0.2454709       1347.048    
  0.2511886       1303.665    
  0.2570395       1257.286    
  0.2630267       1206.202    
  0.2691534       1150.478    
  0.2754228       1092.540    
  0.2818382       1035.951    
  0.2884031       984.2107    
  0.2951208       939.0323    
  0.3019951       900.0554    
  0.3090295       865.4424    
  0.3162277       832.6572    
  0.3235936       798.7947    
  0.3311310       763.0608    
  0.3388441       726.0409    
  0.3467368       689.8634    
  0.3548133       656.2120    
  0.3630780       626.0011    
  0.3715352       598.9054    
  0.3801893       573.5023    
  0.3890451       548.4803    
  0.3981071       523.0656    
  0.4073802       497.7361    
  0.4168693       473.3890    
  0.4265794       450.9872    
  0.4365157       430.1919    
  0.4466835       410.3006    
  0.4570881       391.1580    
  0.4677350       372.7848    
  0.4786300       355.1307    
  0.4897787       338.2355    
  0.5011871       322.0507    
  0.5128613       306.5563    
  0.5248073       291.7650    
  0.5370317       277.6420    
  0.5495408       264.1649    
  0.5623412       251.3085    
  0.5754398       239.0596    
  0.5888435       227.3768    
  0.6025594       216.2486    
  0.6165949       205.6365    
  0.6309572       195.5142    
  0.6456541       185.8712    
  0.6606933       176.6693    
  0.6760828       167.9087    
  0.6918308       159.5575    
  0.7079456       151.5962    
  0.7244358       144.0125    
  0.7413101       136.7884    
  0.7585774       129.9063    
  0.7762469       123.3577    
  0.7943280       117.1208    
  0.8128303       111.1909    
  0.8317635       105.5432    
  0.8511378       100.1657    
  0.8709633       95.06010    
  0.8912507       90.19640    
  0.9120106       85.57526    
  0.9332540       81.18022    
  0.9549923       77.00239    
  0.9772369       73.02882    
  0.9999997       69.25661    
   1.023293       65.66658    
   1.047128       62.25803    
   1.071519       59.01593    
   1.096478       55.94514    
   1.122018       53.02189    
   1.148153       50.24356    
   1.174897       47.61308    
   1.202264       45.10943    
   1.230268       42.74076    
   1.258925       40.48717    
   1.288249       38.34602    
   1.318256       36.31594    
   1.348963       34.39380    
   1.380384       32.56516    
   1.412537       30.83274    
   1.445439       29.18645    
   1.479108       27.63111    
   1.513561       26.15195    
   1.548816       24.75114    
   1.584893       23.42238    
   1.621810       22.16476    
   1.659587       20.97090    
   1.698243       19.84217    
   1.737800       18.77013    
   1.778279       17.75506    
   1.819700       16.79269    
   1.862087       15.88193    
   1.905460       15.01890    
   1.949844       14.20173    
   1.995262       13.42648    
   2.041738       12.69446    
   2.089296       12.00110    
   2.137962       11.34410    
   2.187761       10.72201    
   2.238720       10.13315    
   2.290867       9.576550    
   2.344228       9.049430    
   2.398832       8.551071    
   2.454708       8.078975    
